               Omega               SigmaT1               SigmaT2           SigmaOmega1           SigmaOmega2
  0.000000000000E+00    0.518070021644E-02    0.568785597868E-04    0.750060939658E+00    0.814643832862E+00
  0.151982712758E-01    0.575859984383E-02    0.126287979313E-03    0.347828033364E+00    0.431568576566E+00
  0.303965425517E-01    0.751820020378E-02    0.247003904644E-03    0.657402834422E+00    0.169639737313E+01
  0.455948138275E-01    0.104826996103E-01    0.458621004170E-03    0.255645082223E+01    0.514514389755E+01
  0.607930851033E-01    0.145458001643E-01    0.794472981158E-03    0.417402963372E+01    0.601141214539E+01
  0.759913563792E-01    0.193514004350E-01    0.126673110422E-02    0.250471432243E+01    0.453160201800E+01
  0.911896276550E-01    0.242484994233E-01    0.184948808293E-02    0.496538517325E+01    0.112068543127E+02
  0.106387898931E+00    0.283560007811E-01    0.246859594597E-02    0.973420907744E+01    0.157447202171E+02
  0.121586170207E+00    0.307392999530E-01    0.300674442090E-02    0.447516238482E+01    0.119155368227E+02
  0.136784441482E+00    0.306557007134E-01    0.332747527262E-02    0.622023659997E+01    0.973102291285E+01
  0.151982712758E+00    0.277807991952E-01    0.331270786273E-02    0.164101636343E+01    0.423801059587E+01
  0.167180984034E+00    0.223201997578E-01    0.289978461088E-02    0.211171593894E+01    0.364623371077E+01
  0.182379255310E+00    0.149547001347E-01    0.210206794460E-02    0.503126953369E+01    0.886664789456E+01
  0.197577526586E+00    0.663449987769E-02    0.100299728006E-02    0.427688428529E+01    0.722280349622E+01
  0.212775797862E+00    0.169589999132E-02    0.274341455264E-03    0.343136392937E+00    0.392154312514E+00
  0.227974069137E+00    0.933879986405E-02    0.160933321379E-02    0.361140054825E+01    0.646085937300E+01
  0.243172340413E+00    0.159582998604E-01    0.291812585891E-02    0.329896131094E+01    0.549633065330E+01
  0.258370611689E+00    0.215358007699E-01    0.416422444959E-02    0.783277538933E+00    0.103461645389E+01
  0.273568882965E+00    0.262017995119E-01    0.534091927143E-02    0.473672255889E+01    0.625955861236E+01
  0.288767154241E+00    0.300309993327E-01    0.643517463792E-02    0.228833299646E+00    0.166246441133E+01
  0.303965425517E+00    0.329018011689E-01    0.739311326064E-02    0.304220124010E+01    0.462793931185E+01
  0.319163696792E+00    0.344856008887E-01    0.810728189092E-02    0.132065099558E+01    0.120203700790E+01
  0.334361968068E+00    0.343717001379E-01    0.843662254880E-02    0.340433867067E+01    0.340702719655E+01
  0.349560239344E+00    0.322717018425E-01    0.825460740559E-02    0.132607183184E+01    0.807479860525E+00
  0.364758510620E+00    0.282119996846E-01    0.750687708172E-02    0.271928862761E+01    0.305662026688E+01
  0.379956781896E+00    0.226322002709E-01    0.625469639663E-02    0.148909418312E+01    0.153532677250E+01
  0.395155053172E+00    0.163362007588E-01    0.468209462342E-02    0.561417206587E+01    0.807975556729E+01
  0.410353324447E+00    0.103059001267E-01    0.305905399134E-02    0.391593008123E+01    0.879567815495E+01
  0.425551595723E+00    0.544560002163E-02    0.167187309468E-02    0.382644511808E+01    0.546028652229E+01
  0.440749866999E+00    0.235829991288E-02    0.747988326679E-03    0.234420622624E+01    0.282190550092E+01
  0.455948138275E+00    0.123559997883E-02    0.404415361992E-03    0.316559649159E+01    0.219787228967E+01
  0.471146409551E+00    0.188430002891E-02    0.635770228956E-03    0.698116838286E+01    0.711088760501E+01
  0.486344680827E+00    0.385929993354E-02    0.134101393478E-02    0.405333715836E+01    0.293169651467E+01
  0.501542952102E+00    0.663900002837E-02    0.237356778577E-02    0.244516369927E+01    0.275019517997E+01
  0.516741223378E+00    0.977160036564E-02    0.359138193348E-02    0.832980931443E+00    0.285410999505E+00
  0.531939494654E+00    0.129313999787E-01    0.488182566554E-02    0.430516648233E+00    0.942512044430E+00
  0.547137765930E+00    0.158645994961E-01    0.614709596758E-02    0.896474227359E+00    0.946615422670E+00
  0.562336037206E+00    0.182646997273E-01    0.725836482469E-02    0.461647939004E+00    0.363934319009E+00
  0.577534308482E+00    0.196733996272E-01    0.801288207290E-02    0.627068001893E+00    0.448206999576E+00
  0.592732579757E+00    0.194956008345E-01    0.813283540937E-02    0.377688448555E+00    0.178920762033E+00
  0.607930851033E+00    0.171444993466E-01    0.732071055016E-02    0.298368166323E+00    0.195070257831E+00
  0.623129122309E+00    0.122571000829E-01    0.535401230490E-02    0.344783345548E+00    0.379149443135E-01
  0.638327393585E+00    0.488450005651E-02    0.218135954057E-02    0.377710527961E+00    0.144183447516E+00
  0.653525664861E+00    0.442219991237E-02    0.201801611523E-02    0.143672867789E+00    0.250064301710E+00
  0.668723936137E+00    0.146711003035E-01    0.683757732213E-02    0.414639511978E+00    0.291165433061E+00
  0.683922207412E+00    0.246380008757E-01    0.117214781558E-01    0.210348412502E+00    0.195590225905E+00
  0.699120478688E+00    0.331675000489E-01    0.160997925554E-01    0.516605534483E+00    0.399136847073E+00
  0.714318749964E+00    0.394539982080E-01    0.195312979842E-01    0.451663580318E+00    0.276450653771E+00
  0.729517021240E+00    0.431847013533E-01    0.217927771409E-01    0.525226158698E-01    0.678255637286E+00
  0.744715292516E+00    0.444989018142E-01    0.228819044637E-01    0.757196058655E+00    0.778504113906E+00
  0.759913563792E+00    0.438235998154E-01    0.229528148381E-01    0.844896752522E+00    0.943266778772E+00
  0.775111835067E+00    0.416867993772E-01    0.222301833819E-01    0.358640737713E+00    0.587691327655E+00
  0.790310106343E+00    0.385598987341E-01    0.209283451336E-01    0.248577870038E+00    0.497352484165E+00
  0.805508377619E+00    0.347310006618E-01    0.191785045022E-01    0.112474378809E+00    0.263185427185E+00
  0.820706648895E+00    0.302172005177E-01    0.169706981897E-01    0.283489281260E+00    0.249444348093E+00
  0.835904920171E+00    0.247780997306E-01    0.141486984777E-01    0.109261808453E+00    0.225356502642E+00
  0.851103191447E+00    0.180808994919E-01    0.104937712215E-01    0.210852993356E+00    0.201042202576E+00
  0.866301462722E+00    0.997089967132E-02    0.587995283115E-02    0.159495085548E+00    0.147913788060E+00
  0.881499733998E+00    0.714500027243E-03    0.427995421885E-03    0.120401112638E+00    0.154764566813E+00
  0.896698005274E+00    0.891039986163E-02    0.542007414612E-02    0.230247335860E+00    0.176214117369E+00
  0.911896276550E+00    0.177158005536E-01    0.109400141349E-01    0.175759965776E+00    0.436950733407E-01
  0.927094547826E+00    0.243775006384E-01    0.152783753309E-01    0.137362443132E+00    0.779729661196E-01
  0.942292819101E+00    0.278369002044E-01    0.177021221845E-01    0.214640692746E+00    0.124224880108E+00
  0.957491090377E+00    0.277251005173E-01    0.178847625560E-01    0.767101049327E-01    0.120773400075E+00
  0.972689361653E+00    0.246181003749E-01    0.161050728237E-01    0.163068559752E+00    0.867089114924E-01
  0.987887632929E+00    0.199287999421E-01    0.132185300696E-01    0.245286233158E+00    0.163161235906E+00
  0.100308590420E+01    0.154270995408E-01    0.103723940102E-01    0.121664681619E+00    0.213146810758E+00
  0.101828417548E+01    0.126283997670E-01    0.860473609055E-02    0.287017936497E+00    0.335311620149E+00
  0.103348244676E+01    0.123720001429E-01    0.854138475067E-02    0.269738072363E+00    0.320021228506E+00
  0.104868071803E+01    0.147470002994E-01    0.103133206969E-01    0.123880416260E+00    0.101728671792E+00
  0.106387898931E+01    0.192862991244E-01    0.136602960918E-01    0.120927784842E+00    0.341553926655E+00
  0.107907726058E+01    0.252592004836E-01    0.181158865290E-01    0.132329219904E+00    0.989722596263E-01
  0.109427553186E+01    0.319425016642E-01    0.231927617949E-01    0.290780143548E+00    0.280102764365E+00
  0.110947380314E+01    0.387955009937E-01    0.285118572258E-01    0.613459920433E-01    0.654413213241E-01
  0.112467207441E+01    0.454563982785E-01    0.338079631163E-01    0.254951766844E+00    0.291566579034E+00
  0.113987034569E+01    0.515439994633E-01    0.387885263183E-01    0.338226991187E+00    0.167024157880E+00
  0.115506861696E+01    0.564264990389E-01    0.429568880581E-01    0.305646251382E+00    0.329177722572E+00
  0.117026688824E+01    0.592275001109E-01    0.456061013809E-01    0.205372960258E+00    0.137318327101E+00
  0.118546515951E+01    0.591802000999E-01    0.460842983818E-01    0.237108705104E+00    0.209968643490E+00
  0.120066343079E+01    0.561065003276E-01    0.441769466669E-01    0.133871019402E+00    0.376736700682E+00
  0.121586170207E+01    0.506489984691E-01    0.403171692654E-01    0.197998744607E+00    0.291576847098E+00
  0.123105997334E+01    0.440819002688E-01    0.354689625687E-01    0.128639086773E+00    0.143910026827E+00
  0.124625824462E+01    0.378657989204E-01    0.307920263382E-01    0.765735144390E-01    0.612532315497E-01
  0.126145651589E+01    0.332202985883E-01    0.272981458048E-01    0.774541795942E-01    0.751842222823E-01
  0.127665478717E+01    0.308416001499E-01    0.256060146217E-01    0.150230477117E+00    0.803076242953E-01
  0.129185305845E+01    0.307477992028E-01    0.257889125099E-01    0.110656899538E+00    0.208504737323E-01
  0.130705132972E+01    0.322806015611E-01    0.273472929969E-01    0.138144450967E+00    0.434544293536E-01
  0.132224960100E+01    0.343427993357E-01    0.293834858485E-01    0.873497213922E-01    0.490335139375E-01
  0.133744787227E+01    0.358147993684E-01    0.309433628550E-01    0.123058448711E+00    0.356731050194E-01
  0.135264614355E+01    0.358961001039E-01    0.313136242291E-01    0.106182474449E+00    0.312012316865E-02
  0.136784441482E+01    0.341782011092E-01    0.300996383537E-01    0.104601436345E+00    0.315063124778E-03
  0.138304268610E+01    0.305767003447E-01    0.271815865477E-01    0.108162812229E+00    0.120784353803E-01
  0.139824095738E+01    0.254213996232E-01    0.228088287508E-01    0.954696475817E-01    0.124906924255E-01
  0.141343922865E+01    0.197275001556E-01    0.178625416401E-01    0.949551296795E-01    0.498707583469E-02
  0.142863749993E+01    0.152628002688E-01    0.139451273380E-01    0.933354974321E-01    0.299498046396E-02
  0.144383577120E+01    0.140471002087E-01    0.129491848338E-01    0.931621761998E-01    0.740133268035E-02
  0.145903404248E+01    0.174480993301E-01    0.162264224569E-01    0.823662194570E-01    0.143517017635E-01
  0.147423231376E+01    0.254714991897E-01    0.238946376927E-01    0.778867017194E-01    0.172262121157E-01
  0.148943058503E+01    0.367023013532E-01    0.347267267250E-01    0.880934875213E-01    0.174238474733E-01
  0.150462885631E+01    0.488255992532E-01    0.465904574569E-01    0.950733303418E-01    0.254261741116E-01
  0.151982712758E+01    0.593640990555E-01    0.571225023503E-01    0.960097408443E-01    0.403036365683E-01
  0.153502539886E+01    0.663900002837E-01    0.644133565330E-01    0.674106290827E-01    0.707210078371E-01
  0.155022367013E+01    0.691163986921E-01    0.676084647984E-01    0.546908293633E-01    0.213081152913E-01
  0.156542194141E+01    0.681630969048E-01    0.672161452677E-01    0.466124843832E-01    0.601018810043E-01
  0.158062021269E+01    0.652016028762E-01    0.648104836399E-01    0.660017178910E-01    0.110071803512E-01
  0.159581848396E+01    0.620209015906E-01    0.621365179594E-01    0.899339153992E-01    0.463703895442E-01
  0.161101675524E+01    0.596138983965E-01    0.601919055598E-01    0.426152101519E-01    0.129863902446E-01
  0.162621502651E+01    0.579863004386E-01    0.590008552219E-01    0.132630486781E+00    0.271881589149E+00
  0.164141329779E+01    0.567648001015E-01    0.581990179796E-01    0.242476368034E+00    0.133327495436E+00
  0.165661156907E+01    0.559642016888E-01    0.578112656167E-01    0.388252222646E+00    0.357129823643E+00
  0.167180984034E+01    0.562366992235E-01    0.585261895192E-01    0.590308837895E-01    0.175712050694E+00
  0.168700811162E+01    0.585458017886E-01    0.613787068621E-01    0.159005387826E+00    0.205603123094E+00
  0.170220638289E+01    0.636776015162E-01    0.672456404891E-01    0.219009238903E+00    0.437893434649E+00
  0.171740465417E+01    0.718794986606E-01    0.764543956458E-01    0.313320309493E+00    0.420051797084E+00
  0.173260292544E+01    0.825792029500E-01    0.884612770759E-01    0.474723411739E-01    0.317453011133E+00
  0.174780119672E+01    0.942007973790E-01    0.101622035053E+00    0.208860198130E+00    0.242391552957E+00
  0.176299946800E+01    0.104387499392E+00    0.113396290997E+00    0.128207304078E+00    0.192838411035E+00
  0.177819773927E+01    0.110832802951E+00    0.121227883759E+00    0.769580269225E-01    0.144545689812E+00
  0.179339601055E+01    0.112328499556E+00    0.123701611188E+00    0.131356540581E+00    0.776836312044E-01
  0.180859428182E+01    0.109275996685E+00    0.121151620348E+00    0.833295084198E-01    0.251993546017E-01
  0.182379255310E+01    0.103326700628E+00    0.115319947016E+00    0.985542749180E-01    0.232266098546E-01
  0.183899082438E+01    0.965635031462E-01    0.108482871323E+00    0.856982383833E-01    0.148993050338E-01
  0.185418909565E+01    0.908302962780E-01    0.102708059693E+00    0.687157688264E-01    0.372179430204E-01
  0.186938736693E+01    0.873584970832E-01    0.994201475982E-01    0.997722971805E-01    0.216030086268E-01
  0.188458563820E+01    0.864745005965E-01    0.990428317744E-01    0.889467231191E-01    0.136567653994E-01
  0.189978390948E+01    0.873965993524E-01    0.100731659241E+00    0.860642196124E-01    0.114546151723E-01
  0.191498218075E+01    0.884621962905E-01    0.102597506731E+00    0.100885032035E+00    0.198187357587E-01
  0.193018045203E+01    0.878823027015E-01    0.102555687555E+00    0.826660595046E-01    0.157606876632E-01
  0.194537872331E+01    0.844923034310E-01    0.992034376784E-01    0.809922943212E-01    0.270037221984E-01
  0.196057699458E+01    0.778796002269E-01    0.919934611553E-01    0.117865883087E+00    0.663222348006E-01
  0.197577526586E+01    0.679785013199E-01    0.807795311993E-01    0.453178201727E-01    0.689965653784E-01
  0.199097353713E+01    0.548302009702E-01    0.655419398839E-01    0.958991101261E-01    0.451782194679E-01
  0.200617180841E+01    0.388452000916E-01    0.467068009196E-01    0.703601527349E-01    0.468868579414E-01
  0.202137007969E+01    0.210379008204E-01    0.254426554209E-01    0.730234427437E-01    0.791251998551E-01
  0.203656835096E+01    0.259730010293E-02    0.315917563132E-02    0.739271680734E-01    0.294550797466E-01
  0.205176662224E+01    0.159485004842E-01    0.195091248147E-01    0.709568146405E-01    0.183678410495E-01
  0.206696489351E+01    0.350212007761E-01    0.430814481916E-01    0.935750892872E-01    0.244788871626E-01
  0.208216316479E+01    0.553268007934E-01    0.684402403944E-01    0.775799731216E-01    0.124914161830E-01
  0.209736143606E+01    0.769385993481E-01    0.957001593904E-01    0.708717242175E-01    0.109494115691E-01
  0.211255970734E+01    0.990462973714E-01    0.123872551820E+00    0.717653920668E-01    0.373362331216E-02
  0.212775797862E+01    0.120368801057E+00    0.151354585740E+00    0.677230384300E-01    0.704133015507E-02
  0.214295624989E+01    0.139505892992E+00    0.176358209231E+00    0.738174057790E-01    0.983964631743E-02
  0.215815452117E+01    0.154950395226E+00    0.196922013126E+00    0.716053415844E-01    0.132602058404E-01
  0.217335279244E+01    0.165324494243E+00    0.211210014460E+00    0.674274497300E-01    0.133244202891E-01
  0.218855106372E+01    0.170210093260E+00    0.218582759486E+00    0.771516269611E-01    0.129422644998E-01
  0.220374933500E+01    0.170832201838E+00    0.220511618952E+00    0.673311101246E-01    0.361945788499E-02
  0.221894760627E+01    0.169457405806E+00    0.219852582716E+00    0.624499149606E-01    0.777318214483E-02
  0.223414587755E+01    0.167616605759E+00    0.218562550023E+00    0.571301661200E-01    0.893787199012E-02
  0.224934414882E+01    0.164778903127E+00    0.215936810931E+00    0.674031786729E-01    0.356218172831E-02
  0.226454242010E+01    0.158865094185E+00    0.209217916402E+00    0.692068519974E-01    0.805128013553E-02
  0.227974069137E+01    0.148073300719E+00    0.195961908752E+00    0.646665426307E-01    0.424875025975E-02
  0.229493896265E+01    0.132156297565E+00    0.175746522041E+00    0.678473550984E-01    0.815673805897E-02
  0.231013723393E+01    0.112132303417E+00    0.149835008896E+00    0.600510905490E-01    0.758742841465E-02
  0.232533550520E+01    0.892373025417E-01    0.119809875443E+00    0.608627197035E-01    0.551762835233E-02
  0.234053377648E+01    0.644434019923E-01    0.869297556542E-01    0.668827640533E-01    0.979962385058E-02
  0.235573204775E+01    0.386875011027E-01    0.524306111077E-01    0.647204799069E-01    0.113742455061E-02
  0.237093031903E+01    0.129401003942E-01    0.176180071313E-01    0.670246246401E-01    0.612158468835E-02
  0.238612859031E+01    0.122552001849E-01    0.167619800545E-01    0.605229702047E-01    0.498553200109E-02
  0.240132686158E+01    0.370673015714E-01    0.509287194175E-01    0.620352004896E-01    0.179003968272E-02
  0.241652513286E+01    0.618494004011E-01    0.853602093244E-01    0.604736459565E-01    0.500836229885E-02
  0.243172340413E+01    0.862827003002E-01    0.119611635852E+00    0.635129720524E-01    0.390698071257E-02
  0.244692167541E+01    0.109205402434E+00    0.152056604927E+00    0.624153719138E-01    0.213605527490E-02
  0.246211994668E+01    0.129268199205E+00    0.180778290087E+00    0.615244357042E-01    0.112933173326E-02
  0.247731821796E+01    0.145527392626E+00    0.204397170788E+00    0.584111586340E-01    0.445696225377E-02
  0.249251648924E+01    0.157368496060E+00    0.221975900862E+00    0.620849351457E-01    0.551654814650E-02
  0.250771476051E+01    0.164283096790E+00    0.232713379642E+00    0.590348009182E-01    0.610527048751E-02
  0.252291303179E+01    0.166262701154E+00    0.236508347370E+00    0.580360620028E-01    0.626790684958E-02
  0.253811130306E+01    0.164491504431E+00    0.234963931117E+00    0.613517939961E-01    0.445327723981E-02
  0.255330957434E+01    0.161206200719E+00    0.231221734894E+00    0.574002138178E-01    0.332566370929E-02
  0.256850784562E+01    0.158399894834E+00    0.228125728237E+00    0.586281091838E-01    0.206697468729E-02
  0.258370611689E+01    0.156514704227E+00    0.226323915921E+00    0.582169508578E-01    0.695925280985E-03
  0.259890438817E+01    0.154396802187E+00    0.224157442061E+00    0.575084360093E-01    0.709941549476E-03
  0.261410265944E+01    0.150354698300E+00    0.219156938496E+00    0.575504444629E-01    0.555024946380E-03
  0.262930093072E+01    0.143077194691E+00    0.209370731251E+00    0.562871323941E-01    0.138273968032E-02
  0.264449920199E+01    0.131755203009E+00    0.193555179282E+00    0.562187229734E-01    0.147966891238E-02
  0.265969747327E+01    0.115969896317E+00    0.171024393729E+00    0.566318474281E-01    0.945290551017E-03
  0.267489574455E+01    0.959725975990E-01    0.142075851424E+00    0.567693344035E-01    0.104198404435E-02
  0.269009401582E+01    0.729478970170E-01    0.108400338126E+00    0.563957429889E-01    0.174656491611E-02
  0.270529228710E+01    0.484630018473E-01    0.722865977358E-01    0.544508536302E-01    0.188846500003E-02
  0.272049055837E+01    0.233410000801E-01    0.349447121772E-01    0.539091989782E-01    0.171785524818E-02
  0.273568882965E+01    0.277770007960E-02    0.417394732394E-02    0.539091997957E-01    0.156498241795E-02
  0.275088710093E+01    0.305378008634E-01    0.460557854763E-01    0.551388829771E-01    0.172059750826E-02
